### FIRE-2 THERMAL EQUILIBRIUM
# [H cm^-3] [K] [ergs cm^-3] [s] [dimensionless]
rho temperature pressure cooling_time ne_per_H
1.0000000000e-06 1.3296613219e+05 1.5308510840e-17 1.5556194638e+22 1.1941972021e+00 1.2129809806e-06 9.9999878702e-01 1.5157439304e-08 2.5145995381e-04 9.6970747111e-02 1
1.0391223038e-06 1.2534564791e+05 1.4995737738e-17 1.6193953315e+23 1.1941698978e+00 1.3324246009e-06 9.9999866758e-01 1.5469299293e-08 2.7758345205e-04 9.6944623301e-02 1
1.0797751623e-06 1.1877434945e+05 1.4765491364e-17 7.9414167536e+21 1.1941454608e+00 1.4560049960e-06 9.9999854400e-01 1.5688598108e-08 3.0400563674e-04 9.6918200897e-02 1
1.1220184543e-06 1.1327237401e+05 1.4632411731e-17 0.0000000000e+00 1.1941172650e+00 1.5809120312e-06 9.9999841909e-01 1.5893475644e-08 3.3022649964e-04 9.6891979829e-02 1
1.1659144012e-06 1.0825365060e+05 1.4531188205e-17 1.3228116713e+22 1.1940917248e+00 1.7128732065e-06 9.9999828713e-01 1.6035803652e-08 3.5750024984e-04 9.6864705937e-02 1
1.2115276586e-06 1.0360550255e+05 1.4451338213e-17 0.0000000000e+00 1.1940611512e+00 1.8531099153e-06 9.9999814689e-01 1.6118255505e-08 3.8607107683e-04 9.6836135027e-02 1
1.2589254118e-06 9.9381238324e+04 1.4404437850e-17 0.0000000000e+00 1.1940332127e+00 2.0003313452e-06 9.9999799967e-01 1.6183807303e-08 4.1569653612e-04 9.6806509502e-02 1
1.3081774743e-06 9.5491993066e+04 1.4382206985e-17 1.6768961162e+21 1.1940044833e+00 2.1555480188e-06 9.9999784445e-01 1.6236703250e-08 4.4659174552e-04 9.6775614240e-02 1
1.3593563909e-06 9.0153355394e+04 1.4109354287e-17 4.5425897780e+21 1.1939627080e+00 2.3620507998e-06 9.9999763795e-01 1.5704451262e-08 4.8643229515e-04 9.6735774223e-02 1
1.4125375446e-06 8.4875180438e+04 1.3802972438e-17 2.1623516179e+23 1.1939173344e+00 2.5944997501e-06 9.9999740550e-01 1.5062176873e-08 5.3034028353e-04 9.6691866877e-02 1
1.4677992676e-06 8.0336539697e+04 1.3575995910e-17 3.0073584414e+21 1.1938753525e+00 2.8345699884e-06 9.9999716543e-01 1.4613967071e-08 5.7516204723e-04 9.6647045561e-02 1
1.5252229565e-06 7.6316384130e+04 1.3401179640e-17 3.3030666203e+22 1.1938266633e+00 3.0855426470e-06 9.9999691446e-01 1.4345026901e-08 6.2157267296e-04 9.6600635204e-02 1
1.5848931925e-06 7.3135339830e+04 1.3345018922e-17 2.2099963818e+21 1.1937834682e+00 3.3308098055e-06 9.9999666919e-01 1.4397015403e-08 6.6693454126e-04 9.6555273284e-02 1
1.6468978655e-06 7.0305182739e+04 1.3330484010e-17 1.1544016268e+21 1.1937397761e+00 3.5847882686e-06 9.9999641521e-01 1.4629834016e-08 7.1371685041e-04 9.6508490742e-02 1
1.7113283042e-06 6.7620302701e+04 1.3323010006e-17 3.7946314902e+22 1.1936862700e+00 3.8557190408e-06 9.9999614428e-01 1.4999629629e-08 7.6328361696e-04 9.6458923606e-02 1
1.7782794100e-06 6.5199284519e+04 1.3348569903e-17 1.4302227422e+21 1.1936378717e+00 4.1372927732e-06 9.9999586271e-01 1.5561160575e-08 8.1463496150e-04 9.6407571700e-02 1
1.8478497974e-06 6.2962356156e+04 1.3394902246e-17 0.0000000000e+00 1.1935800727e+00 4.4326438241e-06 9.9999556736e-01 1.6307980189e-08 8.6828991274e-04 9.6353916001e-02 1
1.9201419386e-06 6.1029616053e+04 1.3491675321e-17 0.0000000000e+00 1.1935276067e+00 4.7326914322e-06 9.9999526731e-01 1.7272519151e-08 9.2282773701e-04 9.6299377213e-02 1
1.9952623150e-06 5.9310508915e+04 1.3624593722e-17 3.4407040618e+21 1.1934741693e+00 5.0408510734e-06 9.9999495915e-01 1.8435984875e-08 9.7881437806e-04 9.6243389408e-02 1
2.0733215735e-06 5.7784098590e+04 1.3793259907e-17 4.6892247881e+20 1.1934195816e+00 5.3567647244e-06 9.9999464324e-01 1.9798067869e-08 1.0362127681e-03 9.6185989656e-02 1
2.1544346900e-06 5.5756932696e+04 1.3830061707e-17 1.6381842927e+21 1.1933457705e+00 5.7412484178e-06 9.9999425875e-01 2.1382188637e-08 1.1045647823e-03 9.6117636058e-02 1
2.2387211386e-06 5.3924482250e+04 1.3898818836e-17 3.6535910938e+21 1.1932783864e+00 6.1401066892e-06 9.9999385989e-01 2.3263621377e-08 1.1753381303e-03 9.6046860828e-02 1
2.3263050672e-06 5.2340200943e+04 1.4018255217e-17 4.6973455482e+20 1.1932103677e+00 6.5452048931e-06 9.9999345480e-01 2.5430549819e-08 1.2472780395e-03 9.5974918752e-02 1
2.4173154808e-06 5.0748582577e+04 1.4123721988e-17 1.4152658046e+21 1.1931261794e+00 6.9827683543e-06 9.9999301723e-01 2.7945709682e-08 1.3244710433e-03 9.5897723233e-02 1
2.5118864315e-06 4.9353718351e+04 1.4272885722e-17 1.4020052811e+22 1.1930507770e+00 7.4294724622e-06 9.9999257053e-01 3.0770961830e-08 1.4032983600e-03 9.5818893091e-02 1
2.6101572157e-06 4.8139924176e+04 1.4466516901e-17 4.4606207291e+20 1.1929741672e+00 7.8838153313e-06 9.9999211618e-01 3.3897394328e-08 1.4835374014e-03 9.5738650923e-02 1
2.7122725793e-06 4.6968839902e+04 1.4666790112e-17 1.7756023502e+20 1.1928943808e+00 8.3634917863e-06 9.9999163651e-01 3.7409929893e-08 1.5679299495e-03 9.5654254863e-02 1
2.8183829313e-06 4.5797604151e+04 1.4860542674e-17 0.0000000000e+00 1.1927950541e+00 8.8764566349e-06 9.9999112354e-01 4.1386315443e-08 1.6576915676e-03 9.5564489268e-02 1
2.9286445646e-06 4.4774035555e+04 1.5096797047e-17 0.0000000000e+00 1.1927067448e+00 9.3991278168e-06 9.9999060087e-01 4.5728464672e-08 1.7491956587e-03 9.5472980835e-02 1
3.0432198871e-06 4.3852503195e+04 1.5364542476e-17 3.6269875231e+20 1.1926165857e+00 9.9367810939e-06 9.9999006322e-01 5.0478568625e-08 1.8432565866e-03 9.5378915157e-02 1
3.1622776602e-06 4.2947290187e+04 1.5636072551e-17 1.7794005751e+20 1.1925223139e+00 1.0505361783e-05 9.9998949464e-01 5.5768052170e-08 1.9423137795e-03 9.5279852675e-02 1
3.2859932476e-06 4.2034179991e+04 1.5902344459e-17 0.0000000000e+00 1.1924055582e+00 1.1111683428e-05 9.9998888832e-01 6.1694028545e-08 2.0473841191e-03 9.5174776409e-02 1
3.4145488738e-06 4.1121357546e+04 1.6165631965e-17 1.8012437636e+21 1.1922976473e+00 1.1757517012e-05 9.9998824248e-01 6.8332145745e-08 2.1587360145e-03 9.5063417876e-02 1
3.5481338923e-06 4.0276914994e+04 1.6453114067e-17 3.7150446186e+20 1.1921862081e+00 1.2427623963e-05 9.9998757238e-01 7.5607306912e-08 2.2740197498e-03 9.4948126865e-02 1
3.6869450645e-06 3.9490784450e+04 1.6763100068e-17 2.1894582033e+20 1.1920718183e+00 1.3123962068e-05 9.9998687604e-01 8.3577524148e-08 2.3935260433e-03 9.4828612601e-02 1
3.8311868496e-06 3.8745462777e+04 1.7090158716e-17 1.2873894751e+20 1.1919531221e+00 1.3851215789e-05 9.9998614878e-01 9.2333906496e-08 2.5179513903e-03 9.4704178498e-02 1
3.9810717055e-06 3.8007615847e+04 1.7420577104e-17 0.0000000000e+00 1.1918056858e+00 1.4619804888e-05 9.9998538020e-01 1.0203928191e-07 2.6488316989e-03 9.4573288484e-02 1
4.1368204024e-06 3.7337749739e+04 1.7783069153e-17 0.0000000000e+00 1.1916751374e+00 1.5412553168e-05 9.9998458745e-01 1.1257958341e-07 2.7835855653e-03 9.4438524077e-02 1
4.2986623471e-06 3.6721208918e+04 1.8173652262e-17 3.5813353218e+20 1.1915400037e+00 1.6232598373e-05 9.9998376740e-01 1.2403750574e-07 2.9226604867e-03 9.4299437698e-02 1
4.4668359215e-06 3.6112380486e+04 1.8571544691e-17 2.3340286929e+20 1.1913998963e+00 1.7096881724e-05 9.9998290312e-01 1.3667765993e-07 3.0685670052e-03 9.4153518539e-02 1
4.6415888336e-06 3.5511847927e+04 1.8977187523e-17 1.0490210448e+20 1.1912531925e+00 1.8007494726e-05 9.9998199251e-01 1.5061642305e-07 3.2215755946e-03 9.4000496011e-02 1
4.8231784822e-06 3.4915238985e+04 1.9388323728e-17 0.0000000000e+00 1.1910727408e+00 1.8967892618e-05 9.9998103211e-01 1.6599550196e-07 3.3821323903e-03 9.3839923836e-02 1
5.0118723363e-06 3.4397699438e+04 1.9848208232e-17 4.3570530963e+20 1.1909126810e+00 1.9946877102e-05 9.9998005312e-01 1.8247908447e-07 3.5456172701e-03 9.3676422473e-02 1
5.2079483286e-06 3.3906558109e+04 2.0330229591e-17 3.6245306165e+20 1.1907471072e+00 2.0966587669e-05 9.9997903341e-01 2.0044785817e-07 3.7152699797e-03 9.3506751795e-02 1
5.4116952655e-06 3.3408672906e+04 2.0815385960e-17 0.0000000000e+00 1.1905741714e+00 2.2045416373e-05 9.9997795458e-01 2.2028769929e-07 3.8937357515e-03 9.3328266183e-02 1
5.6234132519e-06 3.2916610860e+04 2.1311156751e-17 1.3013675176e+20 1.1903939355e+00 2.3180364661e-05 9.9997681964e-01 2.4209263670e-07 4.0805177971e-03 9.3141462333e-02 1
5.8434141337e-06 3.2393594641e+04 2.1793035193e-17 7.1760935323e+19 1.1902034525e+00 2.4396678818e-05 9.9997560332e-01 2.6644009817e-07 4.2792032182e-03 9.2942752564e-02 1
6.0720219569e-06 3.1873637129e+04 2.2282138407e-17 0.0000000000e+00 1.1899696279e+00 2.5677919680e-05 9.9997432208e-01 2.9323381343e-07 4.4872559946e-03 9.2734672994e-02 1
6.3095734448e-06 3.1412315300e+04 2.2818750416e-17 0.0000000000e+00 1.1897613033e+00 2.6992296156e-05 9.9997300770e-01 3.2205761759e-07 4.7000654159e-03 9.2521834749e-02 1
6.5564184942e-06 3.0985106537e+04 2.3388995515e-17 2.5379424517e+20 1.1895474626e+00 2.8353078258e-05 9.9997164692e-01 3.5327136628e-07 4.9194624534e-03 9.2302406497e-02 1
6.8129206906e-06 3.0577129694e+04 2.3984018962e-17 5.2244429433e+20 1.1893256568e+00 2.9771453954e-05 9.9997022855e-01 3.8724826032e-07 5.1469832212e-03 9.2074851753e-02 1
7.0794578438e-06 3.0196427874e+04 2.4612032549e-17 4.2932732668e+20 1.1890975463e+00 3.1241940002e-05 9.9996875806e-01 4.2404292247e-07 5.3817494266e-03 9.1840048753e-02 1
7.3564225446e-06 2.9761575149e+04 2.5206612767e-17 6.7571719585e+19 1.1888553998e+00 3.2837172997e-05 9.9996716283e-01 4.6547237157e-07 5.6339647242e-03 9.1587792026e-02 1
7.6442227425e-06 2.9344870169e+04 2.5826017200e-17 4.3999754314e+19 1.1886047013e+00 3.4501772594e-05 9.9996549823e-01 5.1060818037e-07 5.8955702989e-03 9.1326141315e-02 1
7.9432823472e-06 2.8917738436e+04 2.6445771147e-17 0.0000000000e+00 1.1882921649e+00 3.6263166707e-05 9.9996373683e-01 5.6035164107e-07 6.1702211470e-03 9.1051440724e-02 1
8.2540418527e-06 2.8542974830e+04 2.7124254550e-17 4.1007868737e+20 1.1880175739e+00 3.8067427849e-05 9.9996193257e-01 6.1366662476e-07 6.4503218247e-03 9.0771286731e-02 1
8.5769589859e-06 2.8176856487e+04 2.7823885889e-17 1.1010646625e+21 1.1877339493e+00 3.9956821960e-05 9.9996004318e-01 6.7184802152e-07 6.7415949843e-03 9.0479955390e-02 1
8.9125093813e-06 2.7836575943e+04 2.8563256753e-17 9.9596968208e+19 1.1874415441e+00 4.1913786885e-05 9.9995808621e-01 7.3471151073e-07 7.0414281076e-03 9.0180059403e-02 1
9.2611872813e-06 2.7500117105e+04 2.9321968312e-17 7.0477723071e+19 1.1871373154e+00 4.3966463959e-05 9.9995603354e-01 8.0334493975e-07 7.3535225881e-03 8.9867896289e-02 1
9.6235062640e-06 2.7114924803e+04 3.0042332461e-17 4.3857511390e+19 1.1868179458e+00 4.6190723384e-05 9.9995380928e-01 8.8043758998e-07 7.6879174895e-03 8.9533424295e-02 1
1.0000000000e-05 2.6722573788e+04 3.0765940453e-17 0.0000000000e+00 1.1864219465e+00 4.8538851882e-05 9.9995146115e-01 9.6511248426e-07 8.0376413411e-03 8.9183615769e-02 1
1.0391223038e-05 2.6367700934e+04 3.1545022469e-17 0.0000000000e+00 1.1860714470e+00 5.0961851001e-05 9.9994903815e-01 1.0563182232e-06 8.3960032240e-03 8.8825162680e-02 1
1.0797751623e-05 2.6036739886e+04 3.2367700576e-17 8.9697343247e+19 1.1857094908e+00 5.3473563379e-05 9.9994652644e-01 1.1548380053e-06 8.7645567242e-03 8.8456510660e-02 1
1.1220184543e-05 2.5704696947e+04 3.3205069853e-17 0.0000000000e+00 1.1853346353e+00 5.6117619101e-05 9.9994388238e-01 1.2626445784e-06 9.1487970774e-03 8.8072162500e-02 1
1.1659144012e-05 2.5404703890e+04 3.4101439671e-17 6.4033951703e+19 1.1849522496e+00 5.8840766862e-05 9.9994115923e-01 1.3783357468e-06 9.5413985030e-03 8.7679445383e-02 1
1.2115276586e-05 2.5108217163e+04 3.5022014200e-17 5.0784505343e+19 1.1845555633e+00 6.1695182004e-05 9.9993830482e-01 1.5043202114e-06 9.9488644997e-03 8.7271853402e-02 1
1.2589254118e-05 2.4776743873e+04 3.5911714652e-17 3.1077988253e+19 1.1841394955e+00 6.4766477391e-05 9.9993523352e-01 1.6446929616e-06 1.0381723464e-02 8.6838854065e-02 1
1.3081774743e-05 2.4437664113e+04 3.6805970030e-17 3.5799437326e+20 1.1836247471e+00 6.8004585414e-05 9.9993199541e-01 1.7983127742e-06 1.0832734973e-02 8.6387688937e-02 1
1.3593563909e-05 2.4141936675e+04 3.7783079315e-17 9.4600290817e+19 1.1831745123e+00 7.1324275686e-05 9.9992867572e-01 1.9624298593e-06 1.1290989412e-02 8.5929270380e-02 1
1.4125375446e-05 2.3849636262e+04 3.8785881842e-17 0.0000000000e+00 1.1827093863e+00 7.4805233494e-05 9.9992519477e-01 2.1410329071e-06 1.1765937988e-02 8.5454143201e-02 1
1.4677992676e-05 2.3582822923e+04 3.9852389555e-17 1.1165636081e+20 1.1822332373e+00 7.8398083305e-05 9.9992160192e-01 2.3326346334e-06 1.2250979363e-02 8.4968910225e-02 1
1.5252229565e-05 2.3326392453e+04 4.0961214184e-17 4.3597798186e+19 1.1817435751e+00 8.2142514185e-05 9.9991785749e-01 2.5397855516e-06 1.2750543108e-02 8.4469139329e-02 1
1.5848931925e-05 2.3072521203e+04 4.2100471913e-17 5.9641967001e+19 1.1812378298e+00 8.6065934879e-05 9.9991393407e-01 2.7647049962e-06 1.3267363866e-02 8.3952093651e-02 1
1.6468978655e-05 2.2821369502e+04 4.3271333544e-17 2.8589319481e+19 1.1807191041e+00 9.0176477275e-05 9.9990982352e-01 3.0088129887e-06 1.3801724292e-02 8.3417489117e-02 1
1.7113283042e-05 2.2546736946e+04 4.4423108141e-17 1.6565824878e+19 1.1801767020e+00 9.4567101208e-05 9.9990543290e-01 3.2782359483e-06 1.4363704865e-02 8.2855239121e-02 1
1.7782794100e-05 2.2255766529e+04 4.5565324443e-17 1.1534357433e+20 1.1795038276e+00 9.9217424662e-05 9.9990078258e-01 3.5732663981e-06 1.4949560467e-02 8.2269088489e-02 1
1.8478497974e-05 2.1996121843e+04 4.6795564822e-17 6.5451645943e+19 1.1789176149e+00 1.0401397740e-04 9.9989598602e-01 3.8891292185e-06 1.5545824705e-02 8.1672508388e-02 1
1.9201419386e-05 2.1739656095e+04 4.8059352261e-17 1.6458878389e+21 1.1783135284e+00 1.0904035914e-04 9.9989095964e-01 4.2316109898e-06 1.6161029268e-02 8.1056961343e-02 1
1.9952623150e-05 2.1497596913e+04 4.9383495319e-17 4.9516923093e+20 1.1776975503e+00 1.1426223602e-04 9.9988573776e-01 4.5999581596e-06 1.6790446093e-02 8.0427176171e-02 1
2.0733215735e-05 2.1272717844e+04 5.0778697481e-17 2.7726815334e+19 1.1770644487e+00 1.1967001394e-04 9.9988032999e-01 4.9947315372e-06 1.7432232803e-02 7.9784994687e-02 1
2.1544346900e-05 2.1066067579e+04 5.2252697637e-17 1.9997426592e+19 1.1764228241e+00 1.2526176908e-04 9.9987473823e-01 5.4169594653e-06 1.8085457217e-02 7.9131348046e-02 1
2.2387211386e-05 2.0860836545e+04 5.3767968798e-17 1.9118755335e+19 1.1757650635e+00 1.3111748495e-04 9.9986888252e-01 5.8733104418e-06 1.8757728625e-02 7.8458620287e-02 1
2.3263050672e-05 2.0609847448e+04 5.5199272511e-17 0.0000000000e+00 1.1749530552e+00 1.3745796164e-04 9.9986254204e-01 6.3809041765e-06 1.9470218850e-02 7.7745622468e-02 1
2.4173154808e-05 2.0386146441e+04 5.6736218063e-17 2.8715484988e+20 1.1742381219e+00 1.4400213345e-04 9.9985599787e-01 6.9227850446e-06 2.0192813766e-02 7.7022485671e-02 1
2.5118864315e-05 2.0163575555e+04 5.8312204076e-17 0.0000000000e+00 1.1735050124e+00 1.5086452196e-04 9.9984913548e-01 7.5086784386e-06 2.0935727253e-02 7.6278986291e-02 1
2.6101572157e-05 1.9952169402e+04 5.9958215726e-17 0.0000000000e+00 1.1727570379e+00 1.5800064443e-04 9.9984199936e-01 8.1371637479e-06 2.1693186125e-02 7.5520898933e-02 1
2.7122725793e-05 1.9751761700e+04 6.1678113359e-17 3.1171902846e+19 1.1719949402e+00 1.6541876526e-04 9.9983458123e-01 8.8106783939e-06 2.2464782829e-02 7.4748628715e-02 1
2.8183829313e-05 1.9547198994e+04 6.3427332105e-17 9.1010593810e+19 1.1712123378e+00 1.7322651511e-04 9.9982677348e-01 9.5400070425e-06 2.3259267592e-02 7.3953414623e-02 1
2.9286445646e-05 1.9358750455e+04 6.5273349403e-17 2.1006298464e+19 1.1704182858e+00 1.8130325031e-04 9.9981869675e-01 1.0317379045e-05 2.4063825605e-02 7.3148079238e-02 1
3.0432198871e-05 1.9171290666e+04 6.7170192872e-17 1.6872747951e+19 1.1696072001e+00 1.8976343300e-04 9.9981023657e-01 1.1154600729e-05 2.4887513266e-02 7.2323554355e-02 1
3.1622776602e-05 1.8979206855e+04 6.9098714739e-17 1.0645756598e+19 1.1687771677e+00 1.9867046029e-04 9.9980132954e-01 1.2059950078e-05 2.5734052448e-02 7.1476109824e-02 1
3.2859932476e-05 1.8751647242e+04 7.0941113560e-17 3.5410292813e+19 1.1677567039e+00 2.0824682144e-04 9.9979175318e-01 1.3056314706e-05 2.6619648322e-02 7.0589517586e-02 1
3.4145488738e-05 1.8556094599e+04 7.2947736622e-17 3.4877066989e+19 1.1668756741e+00 2.1808503553e-04 9.9978191496e-01 1.4110840797e-05 2.7508051562e-02 6.9700059819e-02 1
3.5481338923e-05 1.8368981710e+04 7.5037264253e-17 3.0729951999e+19 1.1659814892e+00 2.2832945021e-04 9.9977167055e-01 1.5238531833e-05 2.8409535076e-02 6.8797448615e-02 1
3.6869450645e-05 1.8186277659e+04 7.7197350349e-17 3.1288380149e+19 1.1650698324e+00 2.3903135836e-04 9.9976096864e-01 1.6447128373e-05 2.9326337295e-02 6.7879437799e-02 1
3.8311868496e-05 1.8011265504e+04 7.9445530930e-17 1.8584833223e+19 1.1641486456e+00 2.5017722566e-04 9.9974982277e-01 1.7738182258e-05 3.0255399164e-02 6.6949084876e-02 1
3.9810717055e-05 1.7838829189e+04 8.1763270971e-17 1.6493280850e+19 1.1632118041e+00 2.6183539029e-04 9.9973816461e-01 1.9121677607e-05 3.1199871637e-02 6.6003228907e-02 1
4.1368204024e-05 1.7667932742e+04 8.4148099963e-17 2.4149119717e+19 1.1622625171e+00 2.7404285070e-04 9.9972595715e-01 2.0604879898e-05 3.2160163789e-02 6.5041453553e-02 1
4.2986623471e-05 1.7511382556e+04 8.6665386730e-17 8.6435150167e+18 1.1612984959e+00 2.8666284977e-04 9.9971333715e-01 2.2175940676e-05 3.3124287689e-02 6.4075758593e-02 1
4.4668359215e-05 1.7349803374e+04 8.9224981684e-17 6.5106143414e+18 1.1603279775e+00 2.9995864940e-04 9.9970004135e-01 2.3867257362e-05 3.4108640333e-02 6.3089714632e-02 1
4.6415888336e-05 1.7143680746e+04 9.1614169170e-17 2.3512115686e+20 1.1591327420e+00 3.1439549380e-04 9.9968560451e-01 2.5735182609e-05 3.5139977339e-02 6.2056509701e-02 1
4.8231784822e-05 1.6959867312e+04 9.4177616244e-17 6.3697422420e+19 1.1581009399e+00 3.2934852196e-04 9.9967065148e-01 2.7716522055e-05 3.6173958857e-02 6.1020546843e-02 1
5.0118723363e-05 1.6777578528e+04 9.6810216293e-17 0.0000000000e+00 1.1570547188e+00 3.4502478135e-04 9.9965497522e-01 2.9837592332e-05 3.7220917640e-02 5.9971466990e-02 1
5.2079483286e-05 1.6605155218e+04 9.9563812076e-17 2.4064650250e+19 1.1560054372e+00 3.6132901826e-04 9.9963867098e-01 3.2090864986e-05 3.8272282750e-02 5.8917848607e-02 1
5.4116952655e-05 1.6440224068e+04 1.0243136871e-16 2.7762729868e+19 1.1549533469e+00 3.7831855973e-04 9.9962168144e-01 3.4486944232e-05 3.9329098246e-02 5.7858637032e-02 1
5.6234132519e-05 1.6283314949e+04 1.0542284525e-16 1.6366002582e+19 1.1538922191e+00 3.9599992720e-04 9.9960400007e-01 3.7030206184e-05 4.0389261358e-02 5.6795930658e-02 1
5.8434141337e-05 1.6134586658e+04 1.0854664904e-16 6.8474525016e+18 1.1528279233e+00 4.1439312032e-04 9.9958560688e-01 3.9726861346e-05 4.1451522697e-02 5.5730972664e-02 1
6.0720219569e-05 1.5981658601e+04 1.1172415859e-16 7.9481045860e+18 1.1517515949e+00 4.3376748069e-04 9.9956623252e-01 4.2616330598e-05 4.2527265938e-02 5.4652339954e-02 1
6.3095734448e-05 1.5836136866e+04 1.1503795605e-16 5.3688792596e+18 1.1506718018e+00 4.5393615854e-04 9.9954606384e-01 4.5678482343e-05 4.3603668073e-02 5.3572875667e-02 1
6.5564184942e-05 1.5649801982e+04 1.1813196380e-16 0.0000000000e+00 1.1493641315e+00 4.7583320413e-04 9.9952416680e-01 4.9042510905e-05 4.4721366412e-02 5.2451813299e-02 1
6.8129206906e-05 1.5483371814e+04 1.2144811724e-16 6.5748839619e+19 1.1482434982e+00 4.9855698322e-04 9.9950144302e-01 5.2598146372e-05 4.5833572305e-02 5.1336051771e-02 1
7.0794578438e-05 1.5319151023e+04 1.2486094222e-16 3.7154649647e+20 1.1471165478e+00 5.2237453615e-04 9.9947762546e-01 5.6383815303e-05 4.6949051277e-02 5.0216787130e-02 1
7.3564225446e-05 1.5163240565e+04 1.2842530386e-16 1.8096316998e+19 1.1459920804e+00 5.4718033926e-04 9.9945281966e-01 6.0389267847e-05 4.8060139343e-02 4.9101693612e-02 1
7.6442227425e-05 1.5009131775e+04 1.3209330733e-16 1.3760643427e+19 1.1448710428e+00 5.7319273092e-04 9.9942680727e-01 6.4650642204e-05 4.9172892729e-02 4.7984678851e-02 1
7.9432823472e-05 1.4861446753e+04 1.3591049680e-16 7.3233632122e+18 1.1437487649e+00 6.0032426662e-04 9.9939967573e-01 6.9159851812e-05 5.0280598688e-02 4.6872463683e-02 1
